Onset;Bar.Semiquaver;Duration (s);Tempo (bpm);Intensity (dB)
1.149387755;1.1;1.05651;0;65.6
2.205895691;1.2;0.940408;56.7909;63.8
3.146303854;1.3;1.01007;63.8021;64.2
4.156371882;1.4;1.0449;59.4019;67.5
5.201269841;1.5;0.952018;57.4219;71.3
6.153287981;1.6;0.963628;63.024;66.8
7.116916099;1.7;0.998458;62.2647;66.6
8.115374149;1.8;1.07973;60.0927;65.8
9.19510204;2.1;0.963628;55.5696;79
10.15873016;2.2;0.963628;62.2647;69.6
11.12235828;2.3;0.975238;62.2647;68.7
12.09759637;2.4;1.161;61.5234;63.5
13.2585941;2.5;1.19583;51.6797;66.1
14.45442177;2.6;0.928798;50.1745;54.8
15.38321995;2.7;0.963628;64.5996;51.6
16.34684807;2.8;0.952018;62.2647;63.4
17.29886621;3.1;1.07973;63.024;61.6
18.3785941;3.2;1.05651;55.5696;62.6
19.43510204;3.3;1.01007;56.7909;66.4
20.44517007;3.4;1.18422;59.4019;64.9
21.62938776;3.5;1.14939;50.6664;62.6
22.77877551;3.6;1.11456;52.2017;55.7
23.89333333;3.7;1.05651;53.833;70.1
24.94984127;3.8;1.13778;56.7909;68.7
26.08761905;4.1;1.19583;52.7344;68.6
27.28344671;4.2;1.2771;50.1745;65.1
28.56054422;4.3;1.31193;46.9815;71.1
29.87247166;4.4;1.66023;45.7342;62.4
31.53269841;4.5;1.40481;36.1396;52.2
32.93750567;4.6;1.07973;42.7105;62
34.01723356;4.7;1.03329;55.5696;62.8
35.05052154;4.8;1.3932;58.0671;61
36.44371882;5.1;0.952018;43.0664;63.3
37.39573696;5.2;0.812698;63.024;62.9
38.20843537;5.3;0.812698;73.8281;62.5
39.02113379;5.4;0.847528;73.8281;60.8
39.86866213;5.5;0.812698;70.7941;62.5
40.68136054;5.6;0.808934;73.8281;63.5
41.49029478;5.7;0.897732;74.1717;58.6
42.38802721;5.8;1.07973;66.8351;63.5
43.4677551;6.1;0.855215;55.5696;63.1
44.32297052;6.2;0.828231;70.1578;57.9
45.15120181;6.3;0.847528;72.4435;58
45.99873016;6.4;0.789478;70.7941;58.1
46.78820862;6.5;0.859138;75.9995;62.8
47.64734694;6.6;0.917188;69.8374;65.5
48.56453515;6.7;0.940408;65.4173;61.2
49.50494331;6.8;0.917188;63.8021;58.3
50.42213152;7.1;1.0449;65.4173;60
51.46702948;7.2;0.847528;57.4219;58
52.31455782;7.3;0.835918;70.7941;60.6
53.15047619;7.4;0.777869;71.7773;66.9
53.92834467;7.5;0.801088;77.1339;68.1
54.72943311;7.6;0.893968;74.8981;71.4
55.62340136;7.7;0.928798;67.1165;70.4
56.55219955;7.8;1.0449;64.5996;73.5
57.59709751;8.1;0.905578;57.4219;69.3
58.50267574;8.2;0.789478;66.256;68.5
59.2921542;8.3;0.893968;75.9995;71.1
60.18612245;8.4;0.859138;67.1165;64.7
61.04526077;8.5;0.835918;69.8374;62.5
61.88117914;8.6;0.812698;71.7773;61.5
62.69387755;8.7;0.821542;73.8281;68.8
63.5154195;8.8;0.677619;73.0334;63.5
64.19303855;9.1;0.799614;88.5453;66.6
64.99265306;9.2;0.907687;75.0362;67.8
65.90034014;9.3;0.880249;66.1021;69.3
66.78058957;9.4;0.858027;68.1625;58.4
67.63861678;9.5;0.734014;69.9278;61.6
68.37263039;9.6;0.718345;81.7424;67.1
69.09097506;9.7;0.731429;83.5254;65.6
69.82240363;9.8;0.847528;82.0312;67.9
70.66993197;10.1;0.801088;70.7941;65.1
71.47102041;10.2;0.650159;74.8981;66.9
72.12117914;10.3;0.673379;92.2852;68.1
72.79455782;10.4;0.777869;89.1029;69.2
73.5724263;10.5;0.673379;77.1339;69.5
74.24580499;10.6;0.741406;89.1029;64
74.98721088;10.7;0.69619;80.9273;64.4
75.68340136;10.8;0.745079;86.1833;61.8
76.42848073;11.1;0.696599;80.5283;64
77.12507937;11.2;0.685147;86.1328;64.6
77.81022676;11.3;0.773265;87.5724;64.3
78.58349206;11.4;0.770703;77.593;65.7
79.35419501;11.5;0.928798;77.851;63.2
80.2829932;11.6;0.963628;64.5996;61.1
81.24662132;11.7;1.0449;62.2647;65.3
82.29151927;11.8;1.49769;57.4219;61.1
83.78920635;12.1;0.948481;40.0618;60.9
84.73768707;12.2;0.700136;63.2591;62.6
85.43782313;12.3;0.731429;85.6976;61.4
86.1692517;12.4;0.71551;82.0312;63.3
86.8847619;12.5;0.640181;83.8562;61.5
87.52494331;12.6;0.722494;93.7234;60.5
88.24743764;12.7;0.731429;83.0456;64.6
88.97886621;12.8;0.650159;82.0312;66.5
89.62902494;13.1;0.754649;92.2852;63.6
90.38367347;13.2;0.673379;79.5072;66.5
91.05705215;13.3;0.79644;89.1029;62.7
91.85349206;13.4;0.619977;75.3353;65.2
92.47346939;13.5;0.64449;96.7777;65.4
93.11795918;13.6;0.632608;93.0969;67.7
93.75056689;13.7;0.801088;94.8455;67.9
94.55165533;13.8;0.754649;74.8981;62.8
95.30630385;14.1;0.766032;79.5072;67.3
96.0723356;14.2;0.697256;78.3257;66.9
96.76959184;14.3;0.638118;86.0516;66.2
97.40770975;14.4;0.847528;94.0265;69.1
98.2552381;14.5;0.638549;70.7941;71.8
98.89378685;14.6;0.626939;93.9631;74.2
99.52072562;14.7;0.905578;95.7031;68.3
100.4263039;14.8;0.650159;66.256;68.6
101.0764626;15.1;0.893968;92.2852;71
101.9704308;15.2;0.759478;67.1165;68.7
102.7299093;15.3;0.726599;79.0016;66.1
103.4565079;15.4;0.705147;82.5765;70
104.1616553;15.5;0.65322;85.0886;67.1
104.8148753;15.6;0.71907;91.8527;68.3
105.5339456;15.7;1.03404;83.4411;60.9
106.5679819;15.8;0.893968;58.025;61.4
107.4619501;16.1;0.719819;67.1165;61.7
108.1817687;16.2;0.696599;83.3543;57.6
108.8783673;16.3;0.731429;86.1328;60.6
109.6097959;16.4;0.650159;82.0312;56.4
110.2599546;16.5;0.696599;92.2852;59.4
110.9565533;16.6;0.708209;86.1328;57.8
111.6647619;16.7;0.717642;84.7208;61.7
112.3824036;16.8;0.756825;83.6072;62.1
113.139229;17.1;0.745782;79.2785;60.4
113.8850113;17.2;0.693855;80.4524;60.4
114.5788662;17.3;0.650159;86.4734;62.6
115.2290249;17.4;0.626939;92.2852;58.6
115.8559637;17.5;0.661769;95.7031;62.6
116.5177324;17.6;0.742676;90.6661;61.4
117.2604082;17.7;0.741995;80.789;63
118.0024036;17.8;0.697506;80.863;65.4
118.6999093;18.1;0.778367;86.0208;61.7
119.4782766;18.2;0.731429;77.0844;61.9
120.2097052;18.3;0.688844;82.0312;59.5
120.8985488;18.4;0.785624;87.1025;54.8
121.6841723;18.5;0.721179;76.3725;59.9
122.4053515;18.6;0.776508;83.1971;55.7
123.1818594;18.7;0.719819;77.269;59.1
123.901678;18.8;0.777869;83.3543;55.1
124.6795465;19.1;0.855601;77.1339;57.9
125.5351474;19.2;0.781406;70.1262;48.6
126.3165533;19.3;0.708209;76.7847;57
127.0247619;19.4;0.638549;84.7208;51.4
127.6633107;19.5;0.673379;93.9631;48.6
128.3366893;19.6;0.719819;89.1029;45.3
129.0565079;19.7;0.715533;83.3543;62.1
129.7720408;19.8;0.640952;83.8536;68.9
130.4129932;20.1;0.652041;93.6107;65.1
131.065034;20.2;0.55059;92.0188;67.2
131.6156236;20.3;0.459478;108.974;67.2
132.075102;20.4;0.57161;130.583;72.6
132.646712;20.5;0.566168;104.967;67.7
133.2128798;20.6;0.605964;105.976;70.6
133.8188435;20.7;0.534082;99.0158;67.4
134.3529252;20.8;0.462132;112.342;65.1
134.8150567;21.1;0.522449;129.833;68.4
135.3375057;21.2;0.543469;114.844;69.6
135.8809751;21.3;0.454989;110.402;64.9
136.3359637;21.4;0.529274;131.871;68.1
136.8652381;21.5;0.457732;113.363;70.1
137.3229705;21.6;0.5339;131.081;71.3
137.8568707;21.7;0.510839;112.381;67.4
138.3677098;21.8;0.573016;117.454;71.9
138.9407256;22.1;0.634422;104.709;68.5
139.5751474;22.2;0.487619;94.5743;67.8
140.0627664;22.3;0.522449;123.047;69.6
140.5852154;22.4;0.673379;114.844;71.7
141.2585941;22.5;0.696599;89.1029;68.2
141.9551927;22.6;0.58839;86.1328;75.9
142.5435828;22.7;0.502948;101.973;67.7
143.0465306;22.8;0.545669;119.297;64.8
143.5921995;23.1;0.568889;109.957;64.4
144.1610884;23.2;0.501225;105.469;63.8
144.6623129;23.3;0.508844;119.707;61
145.1711565;23.4;0.499229;117.914;63.7
145.6703855;23.5;0.452789;120.185;63.5
146.1231746;23.6;0.476009;132.512;67.4
146.5991837;23.7;0.654921;126.048;66.5
147.2541043;23.8;0.587347;91.6142;69.4
147.8414512;24.1;0.743039;102.154;64.4
148.5844898;24.2;0.520975;80.7495;71.3
149.1054649;24.3;0.573673;115.169;69.3
149.6791383;24.4;0.681678;104.589;74.5
150.3608163;24.5;0.643515;88.0181;67.8
151.0043311;24.6;0.606531;93.238;74.9
151.6108617;24.7;0.874581;98.9233;67.1
152.4854422;24.8;0.626939;68.6043;65.8
153.112381;25.1;0.476009;95.7031;70.4
153.58839;25.2;0.580499;126.048;77.8
154.1688889;25.3;0.580499;103.359;72.5
154.7493878;25.4;0.499229;103.359;74.6
155.2486168;25.5;0.522449;120.185;78.6
155.7710658;25.6;0.615329;114.844;81.2
156.3863946;25.7;0.568889;97.5088;80.5
156.9552834;25.8;0.603719;105.469;80.8
157.5590023;26.1;0.650159;99.384;81.1
158.209161;26.2;0.522449;92.2852;77.3
158.73161;26.3;0.534059;114.844;79.1
159.2656689;26.4;0.522449;112.347;79.6
159.7881179;26.5;0.684989;114.844;82.3
160.4731066;26.6;0.534059;87.5927;79.2
161.0071655;26.7;0.638549;112.347;78.3
161.6457143;26.8;0.870748;93.9631;77.1
162.5164626;27.1;0.719819;68.9062;67
163.2362812;27.2;0.557279;83.3543;69.5
163.7935601;27.3;0.601361;107.666;74
164.3949206;27.4;0.579456;99.7738;77.3
164.9743764;27.5;0.61873;103.545;75.4
165.5931066;27.6;0.522449;96.9728;76.6
166.1155556;27.7;0.545669;114.844;81
166.6612245;27.8;0.638549;109.957;80.8
167.2997732;28.1;0.654444;93.9631;83.4
167.9542177;28.2;0.529773;91.6808;78.6
168.4839909;28.3;0.609569;113.256;80.1
169.0935601;28.4;0.702358;98.4302;71.6
169.7959184;28.5;0.693061;85.4265;77.6
170.4889796;28.6;0.618866;86.5724;61.4
171.1078458;28.7;0.626939;96.9515;76.2
171.7347846;28.8;0.801088;95.7031;70.9
172.535873;29.1;0.615329;74.8981;81.5
173.1512018;29.2;0.580499;97.5088;77.5
173.7317007;29.3;0.61068;103.359;77.1
174.342381;29.4;0.631587;98.2511;76.6
174.9739683;29.5;0.661769;94.9987;76.2
175.635737;29.6;0.650159;90.6661;74.1
176.2858957;29.7;0.696599;92.2852;77.3
176.9824943;29.8;0.870748;86.1328;73.8
177.8532426;30.1;0.731429;68.9062;74.5
178.5846712;30.2;0.743039;82.0312;70.4
179.3277098;30.3;0.685215;80.7495;75.3
180.0129252;30.4;0.847302;87.5637;66.6
180.8602268;30.5;0.673379;70.813;72.8
181.5336054;30.6;0.708209;89.1029;68.2
182.2418141;30.7;0.780136;84.7208;69.1
183.0219501;30.8;0.589841;76.9097;63.4
183.6117914;31.1;0.615329;101.722;64.4
184.2271202;31.2;0.696599;97.5088;59.9
184.9237188;31.3;0.71458;86.1328;68.4
185.6382993;31.4;0.806327;83.9653;60.6
186.4446259;31.5;0.661769;74.4115;68.2
187.1063946;31.6;0.766258;90.6661;60.1
187.8726531;31.7;0.777869;78.3026;64
188.6505215;31.8;0.905578;77.1339;59.5
189.5560998;32.1;0.696599;66.256;66.2
190.2526984;32.2;0.729274;86.1328;62.5
190.9819728;32.3;0.663923;82.2736;57.2
191.6458957;32.4;0.777869;90.3719;59.3
192.4237642;32.5;0.673379;77.1339;63
193.0971429;32.6;0.764286;89.1029;60
193.8614286;32.7;0.907551;78.5047;56
194.7689796;32.8;0.906508;66.112;56.6
195.6754875;33.1;0.789297;66.1881;61.8
196.4647846;33.2;0.743469;76.017;60.5
197.208254;33.3;0.734308;80.7027;58.4
197.9425624;33.4;0.831859;81.7095;52.1
198.7744218;33.5;0.754649;72.1276;62.6
199.5290703;33.6;0.812698;79.5072;60.4
200.3417687;33.7;0.835918;73.8281;57.3
201.1776871;33.8;0.882358;71.7773;57
202.0600454;34.1;0.748005;67.9996;61.8
202.8080499;34.2;0.807732;80.2134;60.1
203.6157823;34.3;0.719819;74.282;59.8
204.3356009;34.4;0.893968;83.3543;51.8
205.2295692;34.5;0.766258;67.1165;61.2
205.9958277;34.6;0.801088;78.3026;57
206.7969161;34.7;0.847528;74.8981;57.7
207.6444444;34.8;0.796009;70.7941;51.8
208.4404535;35.1;0.678458;75.376;54.7
209.1189116;35.2;0.684989;88.4358;61.6
209.8039002;35.3;0.681224;87.5927;64.2
210.4851247;35.4;0.619093;88.0767;59.3
211.1042177;35.5;0.638549;96.916;61.8
211.7427664;35.6;0.615329;93.9631;60.4
212.3580952;35.7;0.603719;97.5088;66.6
212.9618141;35.8;0.568889;99.384;61
213.5307029;36.1;0.673379;105.469;60.5
214.2040816;36.2;0.638549;89.1029;63.9
214.8426304;36.3;0.602086;93.9631;64.9
215.4447166;36.4;0.640181;99.6535;59.3
216.084898;36.5;0.650159;93.7234;63
216.7350567;36.6;0.706395;92.2852;63.2
217.4414512;36.7;0.559093;84.9384;60.7
218.0005442;36.8;0.812698;107.317;63.7
218.8132426;37.1;0.704875;73.8281;64.1
219.5181179;37.2;0.525782;85.1214;60.1
220.0439002;37.3;0.603719;114.116;64.2
220.647619;37.4;0.684989;99.384;68
221.3326077;37.5;0.603719;87.5927;69
221.9363265;37.6;0.499229;99.384;67.8
222.4355556;37.7;0.534059;120.185;66
222.9696145;37.8;0.510839;112.347;62.1
223.4804535;38.1;0.499229;117.454;66.8
223.9796825;38.2;0.441179;120.185;68
224.4208617;38.3;0.464399;135.999;73.1
224.8852608;38.4;0.565238;129.199;69.9
225.4504989;38.5;0.526122;106.15;69.6
225.9766213;38.6;0.446122;114.042;68.8
226.4227438;38.7;0.529093;134.492;68
226.9518367;38.8;0.407551;113.402;71
227.3593878;39.1;0.416757;147.221;71.8
227.7761451;39.2;0.429569;143.969;73.6
228.2057143;39.3;0.499229;139.675;77.6
228.7049433;39.4;0.684989;120.185;76.9
229.389932;39.5;0.828844;87.5927;75.3
230.2187755;39.6;0.535624;72.39;71.7
230.7543991;39.7;0.667279;112.019;77.4
231.421678;39.8;0.882358;89.9174;71.4
232.3040363;40.1;0.719819;67.9996;76.9
233.0238549;40.2;0.708209;83.3543;72.8
233.7320635;40.3;0.696599;84.7208;68.5
234.4286621;40.4;0.696599;86.1328;72.5
235.1252608;40.5;0.615329;86.1328;76.6
235.7405896;40.6;0.673379;97.5088;73.8
236.4139683;40.7;0.626939;89.1029;69.8
237.040907;40.8;0.650159;95.7031;69.7
237.6910658;41.1;0.626939;92.2852;80.9
238.3180045;41.2;0.650159;95.7031;73
238.9681633;41.3;0.661769;92.2852;68.7
239.629932;41.4;0.661769;90.6661;74.8
240.2917007;41.5;0.615329;90.6661;72.8
240.9070295;41.6;0.626939;97.5088;69.9
241.5339683;41.7;0.638549;95.7031;69.7
242.172517;41.8;0.638549;93.9631;74.6
242.8110658;42.1;0.626939;93.9631;80.6
243.4380045;42.2;0.638549;95.7031;72.3
244.0765533;42.3;0.661769;93.9631;70.7
244.738322;42.4;0.638549;90.6661;73.7
245.3768707;42.5;0.626939;93.9631;73.2
246.0038095;42.6;0.708209;95.7031;67.7
246.7120181;42.7;0.673379;84.7208;67
247.3853968;42.8;0.708209;89.1029;71.1
248.0936054;43.1;0.696599;84.7208;67.5
248.7902041;43.2;0.719819;86.1328;64.7
249.5100227;43.3;0.766258;83.3543;64.2
250.2762812;43.4;0.719819;78.3026;68.9
250.9960998;43.5;0.626939;83.3543;65
251.6230385;43.6;0.743039;95.7031;66
252.3660771;43.7;0.801088;80.7495;64.5
253.1671655;43.8;0.928798;74.8981;64.5
254.0959637;44.1;0.928798;64.5996;64.9
255.0247619;44.2;0.777869;64.5996;65.3
255.8026304;44.3;0.743039;77.1339;64.7
256.5456689;44.4;0.719819;80.7495;66.9
257.2654875;44.5;0.696599;83.3543;69.2
257.9620862;44.6;0.696599;86.1328;66.1
258.6586848;44.7;0.696599;86.1328;66.2
259.3552834;44.8;0.754649;86.1328;66.7
260.109932;45.1;0.731429;79.5072;75.3
260.8413605;45.2;0.743039;82.0312;69.2
261.5843991;45.3;0.766258;80.7495;69.4
262.3506576;45.4;0.847528;78.3026;65.6
263.1981859;45.5;0.905578;70.7941;67
264.1037642;45.6;0.696599;66.256;50.3
264.8003628;45.7;0.708209;86.1328;49.5
265.5085714;45.8;0.719819;84.7208;57.1
266.22839;46.1;0.754649;83.3543;53.7
266.9830385;46.2;0.766258;79.5072;60.6
267.7492971;46.3;0.719819;78.3026;64.3
268.4691156;46.4;0.824308;83.3543;61.8
269.293424;46.5;0.812698;72.7883;62.6
270.1061224;46.6;0.696599;73.8281;56.2
270.8027211;46.7;0.719819;86.1328;68.8
271.5225397;46.8;0.812698;83.3543;68.9
272.3352381;47.1;0.766258;73.8281;68.5
273.1014966;47.2;0.847528;78.3026;66.5
273.9490249;47.3;0.917188;70.7941;67.7
274.8662132;47.4;1.21905;65.4173;65.5
276.0852608;47.5;1.21905;49.2188;56
277.3043084;47.6;0.824308;49.2188;61.9
278.1286168;47.7;0.882358;72.7883;63.8
279.0109751;47.8;0.986848;67.9996;61.5
279.9978231;48.1;0.952018;60.7996;61.7
280.9498413;48.2;0.615329;63.024;65.2
281.5651701;48.3;0.618571;97.5088;64.4
282.1837415;48.4;0.530816;96.9977;62.6
282.7145578;48.5;0.624807;113.033;62.1
283.3393651;48.6;0.630136;96.0296;64.3
283.9695011;48.7;0.594898;95.2175;61.4
284.5643991;48.8;0.855283;100.858;58.6
285.4196825;49.1;0.746735;70.1522;63
286.1664172;49.2;0.634853;80.3498;58.7
286.8012698;49.3;0.603719;94.5101;57.4
287.4049887;49.4;0.574898;99.384;64.5
287.9798866;49.5;0.57449;104.366;66.4
288.5543764;49.6;0.696599;104.44;68.7
289.2509751;49.7;0.673379;86.1328;67.1
289.9243537;49.8;0.692721;89.1029;65.8
290.6170748;50.1;0.758526;86.6149;65.4
291.3756009;50.2;0.615329;79.1008;63
291.9909297;50.3;0.603719;97.5088;64.3
292.5946485;50.4;0.545669;99.384;70.3
293.1403175;50.5;0.568639;109.957;70.4
293.7089569;50.6;0.662018;105.515;72.7
294.3709751;50.7;0.638549;90.632;73
295.0095238;50.8;0.731429;93.9631;74.4
295.7409524;51.1;0.777869;82.0312;72.9
296.5188209;51.2;0.568889;77.1339;69.5
297.0877098;51.3;0.754649;105.469;72
297.8423583;51.4;0.557279;79.5072;67.1
298.3996372;51.5;0.603719;107.666;70.1
299.003356;51.6;0.592109;99.384;70.4
299.5954649;51.7;0.766258;101.333;69.6
300.3617234;51.8;0.641746;78.3026;69.2
301.0034694;52.1;0.615601;93.4949;65.1
301.6190703;52.2;0.716349;97.4657;72.8
302.3354195;52.3;0.719841;83.758;69.9
303.0552608;52.4;0.568866;83.3517;65.1
303.624127;52.5;0.650159;105.473;69.2
304.2742857;52.6;0.557279;92.2852;70.2
304.8315646;52.7;0.569841;107.666;71.7
305.4014059;52.8;0.640386;105.292;69.8
306.0417914;53.1;0.67059;93.6936;68.4
306.712381;53.2;0.766258;89.4735;65.8
307.4786395;53.3;0.719819;78.3026;66
308.198458;53.4;0.684989;83.3543;62.8
308.8834467;53.5;0.917188;87.5927;63.5
309.8006349;53.6;0.917188;65.4173;66.7
310.7178231;53.7;0.661769;65.4173;64.8
311.3795918;53.8;0.754649;90.6661;66
312.1342404;54.1;0.882358;79.5072;66.5
313.0165986;54.2;0.615329;67.9996;66.3
313.6319274;54.3;0.694739;97.5088;70.7
314.3266667;54.4;0.614059;86.3633;70.1
314.9407256;54.5;0.641678;97.7105;71.5
315.5824036;54.6;0.638549;93.5048;67.5
316.2209524;54.7;0.650703;93.9631;65.2
316.8716553;54.8;0.591565;92.208;64.8
317.46322;55.1;0.606553;101.426;63.6
318.0697732;55.2;0.773673;98.9196;66.3
318.8434467;55.3;0.666485;77.5521;63
319.509932;55.4;0.819796;90.0245;62.9
320.3297279;55.5;0.742222;73.1889;63.6
321.0719501;55.6;0.759841;80.8383;67.6
321.8317914;55.7;0.972018;78.9639;63.5
322.8038095;55.8;1.56735;61.7272;64.8
324.3711565;56.1;0.943742;38.2812;59.8
325.314898;56.2;0.646825;63.5767;59.4
325.9617234;56.3;0.684989;92.7607;63.4
326.646712;56.4;0.673832;87.5927;63
327.3205442;56.5;0.74483;89.0429;61.3
328.0653741;56.6;0.64102;80.5553;61.2
328.7063946;56.7;0.552562;93.6008;64.7
329.2589569;56.8;0.730975;108.585;64.8
329.989932;57.1;0.702449;82.0821;65.4
330.692381;57.2;0.640317;85.4155;72.5
331.3326984;57.3;0.668367;93.7035;64
332.0010658;57.4;0.612993;89.771;64.3
332.614059;57.5;0.613583;97.8804;65
333.2276417;57.6;0.577914;97.7863;68
333.8055556;57.7;0.639909;103.822;69.4
334.4454649;57.8;0.67644;93.7633;64.8
335.1219048;58.1;0.731519;88.6997;68.4
335.853424;58.2;0.63619;82.0211;67
336.4896145;58.3;0.629297;94.3114;68.2
337.1189116;58.4;0.584694;95.3445;67.1
337.7036054;58.5;0.649025;102.618;67.7
338.3526304;58.6;0.6039;92.4464;68.3
338.9565306;58.7;0.604104;99.3542;70
339.5606349;58.8;0.565261;99.3206;68.1
340.1258957;59.1;0.700068;106.146;68.3
340.8259637;59.2;0.727959;85.706;61.7
341.5539229;59.3;0.719819;82.4222;63.4
342.2737415;59.4;0.696599;83.3543;63
342.9703401;59.5;0.724966;86.1328;61.4
343.6953061;59.6;0.772721;82.7625;58.9
344.4680272;59.7;0.905578;77.6477;62.5
345.3736054;59.8;0.661769;66.256;62.6
346.0353741;60.1;0.640975;90.6661;63.8
346.6763492;60.2;0.647732;93.6074;63.9
347.3240816;60.3;0.633673;92.6308;68
347.9577551;60.4;0.596984;94.686;66
348.5547392;60.5;0.713265;100.505;65.3
349.2680045;60.6;0.668322;84.1202;69.8
349.9363265;60.7;0.743039;89.7771;64.4
350.6793651;60.8;0.715805;80.7495;65.6
351.3951701;61.1;0.74322;83.8217;70.1
352.13839;61.2;0.584331;80.7298;72.1
352.7227211;61.3;0.576349;102.682;70.8
353.2990703;61.4;0.596259;104.104;67.7
353.8953288;61.5;0.588776;100.627;67.8
354.4841043;61.6;0.627052;101.906;69.1
355.1111565;61.7;0.712948;95.6858;64.9
355.8241043;61.8;0.600023;84.1576;67.1
356.424127;62.1;0.783265;99.9962;69
357.2073923;62.2;0.958073;76.6024;69.1
358.1654649;62.3;0.942744;62.6257;57.7
359.1082086;62.4;0.885941;63.644;63.4
359.9941497;62.5;0.983265;67.7246;58.3
360.977415;62.6;0.877347;61.0212;62.2
361.8547619;62.7;1.1544;68.388;60.2
363.009161;62.8;1.33515;51.9751;56.7
364.3443084;63.1;0.963628;44.9389;65.2
365.3079365;63.2;0.824308;62.2647;65.1
366.1322449;63.3;0.835918;72.7883;65.3
366.9681633;63.4;0.801088;71.7773;67.4
367.7692517;63.5;0.766258;74.8981;70.7
368.5355102;63.6;0.696599;78.3026;67.8
369.2321088;63.7;0.684989;86.1328;63.3
369.9170975;63.8;0.684989;87.5927;67.9
370.6020862;64.1;0.638549;87.5927;77.9
371.2406349;64.2;0.592109;93.9631;71.3
371.8327438;64.3;0.592109;101.333;76.7
372.4248526;64.4;0.615329;101.333;71.9
373.0401814;64.5;0.615329;97.5088;72.7
373.6555102;64.6;0.568889;97.5088;74.2
374.2243991;64.7;0.522449;105.469;78.8
374.7468481;64.8;0.499229;114.844;75.1
375.2460771;65.1;0.568889;120.185;81.5
375.814966;65.2;0.487619;105.469;75.6
376.302585;65.3;0.487619;123.047;80.4
376.7902041;65.4;0.429569;123.047;75.6
377.2197732;65.5;0.568889;139.675;81.1
377.7886621;65.6;0.522449;105.469;77
378.3111111;65.7;0.626939;114.844;81.1
378.9380499;65.8;0.71966;95.7031;75.9
