Onset;Bar.Semiquaver;Duration (s);Tempo (bpm);Intensity (dB)
0.163265306;1.1;0.991927;0;72.1
1.155192743;1.2;0.893968;60.4883;65.4
2.049160997;1.3;0.946213;67.1165;63.1
2.995374149;1.4;0.917188;63.4107;69
3.912562358;1.5;0.922993;65.4173;75.9
4.835555555;1.6;0.847528;65.0059;72.7
5.6830839;1.7;0.911383;70.7941;74.7
6.59446712;1.8;0.94;65.834;69.2
7.53446712;2.1;0.91;63.8298;79.9
8.44446712;2.2;0.82;65.9341;68.3
9.26446712;2.3;0.8;73.1707;66.8
10.06446712;2.4;0.85;75;66
10.91446712;2.5;0.85;70.5882;66.6
11.76446712;2.6;0.9;70.5882;53.2
12.66446712;2.7;0.8;66.6667;64.1
13.46446712;2.8;0.92;75;64.3
14.38446712;3.1;0.85;65.2174;68.3
15.23446712;3.2;0.88;70.5882;56.3
16.11446712;3.3;0.86;68.1818;69.4
16.97446712;3.4;0.97;69.7674;70
17.94446712;3.5;0.945261;61.8557;74.4
18.88972789;3.6;0.889864;63.4745;66.9
19.77959184;3.7;0.926463;67.426;73.5
20.70605442;3.8;0.975578;64.7625;74.7
21.68163265;4.1;0.806893;61.502;72.7
22.48852608;4.2;0.917188;74.3593;69
23.40571429;4.3;0.865306;65.4173;67.8
24.27102041;4.4;1.02939;69.3396;65.2
25.30040816;4.5;0.813878;58.2871;60.1
26.11428571;4.6;0.967347;73.7212;65
27.08163265;4.7;1.04043;62.0253;61.7
28.12206349;4.8;1.51821;57.6684;55.1
29.64027211;5.1;0.899773;39.5203;63.1
30.54004535;5.2;0.847528;66.6835;62.3
31.3875737;5.3;0.835918;70.7941;69.1
32.22349206;5.4;0.975238;71.7773;65.7
33.19873016;5.5;0.928798;61.5234;65.9
34.12752834;5.6;0.789478;64.5996;65.7
34.9170068;5.7;0.903401;75.9995;67.7
35.82040816;5.8;0.946939;66.4157;66.5
36.76734694;6.1;0.767347;63.3621;68.3
37.53469388;6.2;0.8;78.1915;67.4
38.33469388;6.3;0.77551;75;70.5
39.11020408;6.4;0.783787;77.3684;70.6
39.89399093;6.5;0.934218;76.5514;74.6
40.82820862;6.6;0.820091;64.2249;67.7
41.64829932;6.7;0.763878;73.1626;71.1
42.41217687;6.8;0.967415;78.5466;68.8
43.37959184;7.1;0.948662;62.021;67.6
44.32825397;7.2;0.75746;63.247;67.7
45.08571429;7.3;0.75102;79.2121;72.4
45.83673469;7.4;0.771519;79.8913;74
46.60825397;7.5;0.792494;77.7686;76.3
47.4007483;7.6;0.803878;75.7103;71
48.20462585;7.7;0.821905;74.6382;76
49.02653061;7.8;0.991837;73.0012;77.5
50.01836735;8.1;0.812404;60.4938;76.8
50.83077098;8.2;0.798798;73.8549;75.8
51.62956916;8.3;0.719116;75.1128;77.8
52.34868481;8.4;0.78;83.4358;73.5
53.12868481;8.5;0.777642;76.9231;72.3
53.90632653;8.6;0.852132;77.1564;71.5
54.75845805;8.7;0.859138;70.4117;77.7
55.61759637;8.8;0.864943;69.8374;70.2
56.48253968;9.1;0.893968;69.3687;69.4
57.37650794;9.2;1.07392;67.1165;64.1
58.45043084;9.3;0.926803;55.8699;68
59.37723356;9.4;0.751746;64.7387;59.8
60.12897959;9.5;0.800181;79.8142;56.5
60.929161;9.6;0.806893;74.983;64.1
61.73605442;9.7;0.864943;74.3593;67.2
62.60099773;9.8;0.905578;69.3687;69.4
63.50657596;10.1;0.847528;66.256;69.4
64.35410431;10.2;0.928798;70.7941;65.2
65.28290249;10.3;0.795283;64.5996;69.1
66.07818594;10.4;0.795283;75.4448;61.4
66.87346939;10.5;0.787755;75.4448;64.9
67.66122449;10.6;0.831837;76.1658;58.6
68.49306122;10.7;0.684989;72.1295;64.9
69.17804989;10.8;0.684989;87.5927;64
69.86303855;11.1;0.731429;87.5927;66.6
70.59446712;11.2;0.684989;82.0312;65.7
71.27945578;11.3;0.753197;87.5927;63.6
72.03265306;11.4;0.82576;79.6604;65.5
72.8584127;11.5;0.830113;72.6604;62.6
73.68852608;11.6;1.01007;72.2793;63.9
74.6985941;11.7;0.975238;59.4019;64.9
75.6738322;11.8;1.66603;61.5234;58.7
77.33986395;12.1;1.14939;36.0137;61.4
78.4892517;12.2;1.11075;52.2017;64.2
79.6;12.3;1.0371;54.0176;62.3
80.63709751;12.4;1.0507;57.8538;60.4
81.68780045;12.5;1.00624;57.1046;61.9
82.69403628;12.6;0.90966;59.6282;62
83.60369615;12.7;0.934354;65.9587;63.5
84.53804989;12.8;1.07692;64.2155;67.4
85.61496599;13.1;0.949229;55.7146;62.6
86.56419501;13.2;1.06059;63.2092;66.5
87.62478458;13.3;0.96415;56.5723;63.3
88.58893424;13.4;0.981837;62.231;63.9
89.57077098;13.5;0.896259;61.11;65.8
90.46702948;13.6;0.926712;66.945;68.6
91.3937415;13.7;0.992653;64.745;67.4
92.38639456;13.8;1.16868;60.4441;61.2
93.55507937;14.1;0.950227;51.3398;66
94.50530612;14.2;0.874898;63.1428;62
95.38020408;14.3;0.904422;68.5794;59.8
96.28462585;14.4;0.855533;66.3407;64.1
97.14015873;14.5;0.877075;70.1317;64.7
98.01723356;14.6;0.729229;68.4092;65.5
98.74646259;14.7;0.912585;82.2787;61.2
99.65904762;14.8;0.871995;65.7473;68
100.5310431;15.1;0.759025;68.8077;64.1
101.290068;15.2;0.918367;79.0488;68
102.2084354;15.3;0.89034;65.3333;67.6
103.0987755;15.4;0.807302;67.39;63.3
103.9060771;15.5;0.862358;74.3217;65.4
104.7684354;15.6;0.952018;69.5767;67.4
105.7204535;15.7;0.850907;63.024;64.1
106.5713605;15.8;0.960249;70.513;62.3
107.53161;16.1;0.917188;62.4838;60.2
108.4487982;16.2;0.861406;65.4173;63.2
109.3102041;16.3;0.795918;69.6536;64.2
110.1061224;16.4;0.75102;75.3846;65.3
110.8571429;16.5;0.839977;79.8913;67.1
111.6971202;16.6;0.958231;71.4305;63.5
112.6553515;16.7;0.830816;62.6154;62.2
113.4861678;16.8;1.11383;72.2181;59.6
114.6;17.1;0.842993;53.8681;61.7
115.4429932;17.2;0.748844;71.1749;63.1
116.1918367;17.3;0.791837;80.1235;62.3
116.9836735;17.4;0.840816;75.7732;61.2
117.8244898;17.5;0.840816;71.3592;67
118.6653061;17.6;0.857143;71.3592;65.9
119.522449;17.7;0.833288;70;71.6
120.355737;17.8;0.876916;72.0039;69.1
121.2326531;18.1;0.832653;68.4216;68.7
122.0653061;18.2;1.02041;72.0588;63.1
123.0857143;18.3;0.857143;58.8;67.1
123.9428571;18.4;0.808163;70;62.4
124.7510204;18.5;0.828571;74.2424;61.9
125.5795918;18.6;0.771429;72.4138;57.6
126.3510204;18.7;0.869388;77.7778;66.4
127.2204082;18.8;0.918367;69.0141;59.6
128.1387755;19.1;0.868005;65.3333;63.4
129.00678;19.2;0.94424;69.1241;51.1
129.9510204;19.3;0.820862;63.5431;52.6
130.7718821;19.4;0.850839;73.0939;44
131.6227211;19.5;0.875238;70.5186;41.2
132.4979592;19.6;0.926531;68.5528;41.4
133.4244898;19.7;0.864739;64.7577;60.9
134.289229;19.8;0.794512;69.3851;66.5
135.0837415;20.1;0.89585;75.518;55.9
135.9795918;20.2;0.767347;66.9755;58.1
136.7469388;20.3;0.796281;78.1915;53.9
137.54322;20.4;1.06494;75.3503;66.6
138.6081633;20.5;0.720952;56.341;64.5
139.3291156;20.6;0.907619;83.2233;70.5
140.2367347;20.7;0.865306;66.107;68.5
141.1020408;20.8;0.665306;69.3396;63.3
141.7673469;21.1;0.662585;90.1841;66.7
142.429932;21.2;0.692903;90.5544;75.2
143.1228345;21.3;0.705737;86.5923;68.9
143.8285714;21.4;0.755102;85.0175;72.3
144.5836735;21.5;0.625986;79.4595;73.4
145.2096599;21.6;0.667891;95.8487;71.6
145.877551;21.7;0.804082;89.835;68
146.6816327;21.8;0.771429;74.6193;74.9
147.4530612;22.1;0.77551;77.7778;70.7
148.2285714;22.2;0.755102;77.3684;77
148.9836735;22.3;0.759184;79.4595;71
149.7428571;22.4;1.03265;79.0323;78.6
150.7755102;22.5;0.714286;58.1028;69.5
151.4897959;22.6;0.983673;84;75.1
152.4734694;22.7;0.8;60.9958;70.6
153.2734694;22.8;0.697959;75;68.9
153.9714286;23.1;0.665306;85.9649;69.1
154.6367347;23.2;0.612245;90.1841;71.9
155.2489796;23.3;0.697959;98;65.2
155.9469388;23.4;0.587755;85.9649;68.9
156.5346939;23.5;0.653061;102.083;67.5
157.1877551;23.6;0.661224;91.875;77.4
157.8489796;23.7;0.636735;90.7407;75
158.4857143;23.8;0.697959;94.2308;78.3
159.1836735;24.1;0.753016;85.9649;72.6
159.9366893;24.2;0.646984;79.6796;76.2
160.5836735;24.3;0.718367;92.738;75.3
161.3020408;24.4;0.795918;83.5227;81.6
162.0979592;24.5;0.771429;75.3846;77.5
162.8693878;24.6;0.763265;77.7778;80.4
163.6326531;24.7;1.25714;78.6096;75.2
164.8897959;24.8;0.72288;47.7273;69.3
165.6126757;25.1;0.656712;83.0014;73.2
166.2693878;25.2;0.726531;91.3643;79
166.9959184;25.3;0.832653;82.5843;76
167.8285714;25.4;0.673469;72.0588;75.4
168.5020408;25.5;0.612245;89.0909;78.7
169.1142857;25.6;0.64898;98;79.3
169.7632653;25.7;0.742857;92.4528;84.4
170.5061224;25.8;0.914286;80.7692;83.8
171.4204082;26.1;0.966032;65.625;81.1
172.3864399;26.2;0.817642;62.1098;79.6
173.2040816;26.3;0.685714;73.3818;80.8
173.8897959;26.4;0.697959;87.5;76.2
174.5877551;26.5;0.995918;85.9649;75.9
175.5836735;26.6;0.840816;60.2459;78.8
176.4244898;26.7;0.836735;71.3592;77.4
177.2612245;26.8;0.771429;71.7073;84
178.0326531;27.1;0.677551;77.7778;74.5
178.7102041;27.2;0.722449;88.5542;70.9
179.4326531;27.3;0.742857;83.0508;72.5
180.1755102;27.4;0.795918;80.7692;76.6
180.9714286;27.5;0.734694;75.3846;78.3
181.7061224;27.6;0.697959;81.6667;82.8
182.4040816;27.7;0.734694;85.9649;79.4
183.1387755;27.8;0.918367;81.6667;82.9
184.0571429;28.1;0.739048;65.3333;82.7
184.7961905;28.2;0.718095;81.1856;83.1
185.5142857;28.3;0.657143;83.5544;82.4
186.1714286;28.4;0.587755;91.3043;77.1
186.7591837;28.5;0.702041;102.083;80.7
187.4612245;28.6;0.840816;85.4651;72.8
188.3020408;28.7;0.632653;71.3592;78.6
188.9346939;28.8;0.795918;94.8387;76.8
189.7306122;29.1;0.746939;75.3846;85
190.477551;29.2;0.673469;80.3279;77.8
191.1510204;29.3;0.718367;89.0909;76.6
191.8693878;29.4;0.738775;83.5227;81.4
192.6081633;29.5;0.718367;81.2155;82.9
193.3265306;29.6;0.795193;83.5227;78.9
194.1217234;29.7;0.719093;75.4534;78.2
194.8408163;29.8;0.918367;83.4384;75.4
195.7591837;30.1;0.697959;65.3333;77.6
196.4571429;30.2;0.881633;85.9649;74.9
197.3387755;30.3;0.795918;68.0556;78.7
198.1346939;30.4;0.885714;75.3846;71.4
199.0204082;30.5;0.800113;67.7419;76.2
199.8205215;30.6;0.906009;74.9894;69.5
200.7265306;30.7;0.81771;66.2245;70.5
201.5442404;30.8;0.912472;73.3757;65.4
202.456712;31.1;0.971859;65.7555;61
203.4285714;31.2;1.10612;61.7373;58.3
204.5346939;31.3;0.818027;54.2435;61.3
205.3527211;31.4;0.888095;73.3472;57.9
206.2408163;31.5;0.717506;67.5603;64.3
206.958322;31.6;0.866168;83.623;56.6
207.8244898;31.7;0.722449;69.2706;67
208.5469388;31.8;1.08163;83.0508;60.9
209.6285714;32.1;0.782744;55.4717;66.9
210.4113152;32.2;0.891746;76.6534;59.4
211.3030612;32.3;0.909184;67.2837;59
212.2122449;32.4;0.926531;65.9933;56.6
213.1387755;32.5;0.832789;64.7577;65
213.9715646;32.6;0.901905;72.0471;58.8
214.8734694;32.7;0.967347;66.5259;61
215.8408163;32.8;1.18776;62.0253;56.3
217.0285714;33.1;0.77551;50.5155;61.9
217.8040816;33.2;0.808163;77.3684;57.2
218.6122449;33.3;0.819229;74.2424;62.3
219.4314739;33.4;0.988934;73.2396;53.4
220.4204082;33.5;0.934694;60.6714;63
221.355102;33.6;0.832653;64.1921;59.3
222.1877551;33.7;0.938776;72.0588;57.5
223.1265306;33.8;1.05714;63.913;56.1
224.1836735;34.1;0.759184;56.7568;59.7
224.9428571;34.2;0.746939;79.0323;62.8
225.6897959;34.3;0.82449;80.3279;68.2
226.5142857;34.4;0.836735;72.7723;56.4
227.3510204;34.5;0.84898;71.7073;64.5
228.2;34.6;0.816327;70.6731;63.9
229.0163265;34.7;0.840816;73.5;63.6
229.8571429;34.8;1.11837;71.3592;62.2
230.9755102;35.1;0.783673;53.6496;56
231.7591837;35.2;0.832653;76.5625;58.4
232.5918367;35.3;0.816327;72.0588;62.2
233.4081633;35.4;0.84898;73.5;54
234.2571429;35.5;0.77551;70.6731;66.4
235.0326531;35.6;0.828571;77.3684;61
235.8612245;35.7;0.906122;72.4138;65.8
236.7673469;35.8;0.906122;66.2162;61.8
237.6734694;36.1;0.750726;66.2162;66
238.424195;36.2;0.751315;79.9227;66.2
239.1755102;36.3;0.771429;79.86;68.6
239.9469388;36.4;0.812245;77.7778;63.5
240.7591837;36.5;0.714286;73.8693;64.9
241.4734694;36.6;0.771429;84;62.3
242.244898;36.7;0.731678;77.7778;66.5
242.976576;36.8;0.91322;82.0033;62.8
243.8897959;37.1;0.918367;65.7016;63.5
244.8081633;37.2;0.677551;65.3333;62
245.4857143;37.3;0.738775;88.5542;62.8
246.2244898;37.4;0.84898;81.2155;62.2
247.0734694;37.5;0.738775;70.6731;58
247.8122449;37.6;0.657143;81.2155;59.2
248.4693878;37.7;0.685714;91.3043;64.9
249.155102;37.8;0.636463;87.5;61.2
249.7915646;38.1;0.632925;94.2711;65
250.4244898;38.2;0.64229;94.7979;64.3
251.06678;38.3;0.63415;93.4157;68.7
251.7009297;38.4;0.787052;94.6149;67.6
252.4879819;38.5;0.622222;76.2338;66.3
253.1102041;38.6;0.595918;96.4286;68.4
253.7061224;38.7;0.612245;100.685;72.6
254.3183673;38.8;0.616417;98;69.7
254.9347846;39.1;0.664671;97.3367;68
255.5994558;39.2;0.608707;90.2702;72.4
256.2081633;39.3;0.616145;98.5695;74.5
256.8243084;39.4;0.779773;97.3797;75.5
257.6040816;39.5;0.726531;76.9454;74.1
258.3306122;39.6;0.518367;82.5843;75.3
258.8489796;39.7;0.57551;115.748;76.4
259.4244898;39.8;1.03673;104.255;76.4
260.4612245;40.1;0.786485;57.874;84.9
261.2477098;40.2;0.769161;76.2888;75.6
262.0168707;40.3;0.791292;78.0071;71.7
262.8081633;40.4;0.673469;75.8253;77.2
263.4816327;40.5;0.791837;89.0909;84.2
264.2734694;40.6;0.771429;75.7732;74
265.044898;40.7;0.816327;77.7778;70.6
265.8612245;40.8;0.714286;73.5;72.1
266.5755102;41.1;0.885714;84;83.3
267.4612245;41.2;0.779592;67.7419;75
268.2408163;41.3;0.831995;76.9633;71.8
269.0728118;41.4;0.727188;72.1158;75.7
269.8;41.5;0.816327;82.5096;82.1
270.6163265;41.6;0.812245;73.5;76.1
271.4285714;41.7;0.783673;73.8693;69.7
272.2122449;41.8;0.865306;76.5625;78.4
273.077551;42.1;0.783673;69.3396;84
273.8612245;42.2;0.958186;76.5625;71.7
274.8194104;42.3;0.964263;62.6183;70.7
275.7836735;42.4;0.794626;62.2237;76
276.5782993;42.5;0.854354;75.5072;79.9
277.4326531;42.6;0.926531;70.2285;74.6
278.3591837;42.7;0.95102;64.7577;70.5
279.3102041;42.8;0.928571;63.0901;75
280.2387755;43.1;0.855442;64.6154;77.7
281.0942177;43.2;0.934354;70.1392;72.3
282.0285714;43.3;0.979592;64.2155;67.6
283.0081633;43.4;0.963265;61.25;74.7
283.9714286;43.5;0.95102;62.2881;76.1
284.922449;43.6;1.0449;63.0901;72.9
285.9673469;43.7;1.1551;57.4219;65.3
287.122449;43.8;1.73878;51.9435;67.5
288.8612245;44.1;1.14694;34.507;65.8
290.0081633;44.2;1.01333;52.3132;64.6
291.0214966;44.3;0.922993;59.2105;64.3
291.9444898;44.4;1.00426;65.0059;69.6
292.9487528;44.5;0.963628;59.7453;75.1
293.912381;44.6;0.870748;62.2647;69.6
294.7831293;44.7;0.963628;68.9062;74.6
295.7467574;44.8;1.0449;62.2647;69.2
296.7916553;45.1;0.957823;57.4219;78.9
297.7494785;45.2;0.847528;62.642;71.1
298.5970068;45.3;0.870748;70.7941;67.6
299.4677551;45.4;0.853333;68.9062;67.1
300.3210884;45.5;1.06948;70.3125;66.3
301.3905669;45.6;0.776508;56.1021;55.3
302.1670748;45.7;0.806893;77.269;69.8
302.9739683;45.8;0.812698;74.3593;67.6
303.7866667;46.1;0.905578;73.8281;66.6
304.6922449;46.2;0.864943;66.256;62.8
305.5571882;46.3;0.864943;69.3687;71.7
306.4221315;46.4;0.946213;69.3687;68.8
307.3683447;46.5;0.925896;63.4107;70.1
308.2942404;46.6;0.850431;64.8021;69.3
309.1446712;46.7;0.913469;70.5525;75.3
310.0581406;46.8;0.880272;65.6836;77.1
310.9384127;47.1;0.911383;68.1607;73.7
311.8497959;47.2;1.02168;65.834;72
312.8714739;47.3;0.952018;58.7269;70.6
313.8234921;47.4;0.992834;63.024;64.8
314.8163265;47.5;0.934422;60.433;63
315.7507483;47.6;1.0166;64.2108;66.6
316.7673469;47.7;1.11383;59.0203;65.4
317.8811791;47.8;1.50349;53.8681;60.9
319.3846712;48.1;0.882358;39.9071;65
320.2670295;48.2;0.760454;67.9996;66.1
321.027483;48.3;0.84059;78.9003;67.6
321.8680726;48.4;0.796417;71.3785;62.7
322.6644898;48.5;0.795283;75.3374;67.7
323.4597732;48.6;0.760454;75.4448;68.4
324.2202268;48.7;0.775692;78.9003;70.7
324.9959184;48.8;0.826485;77.3503;71.5
325.8224036;49.1;0.841723;72.5966;66.9
326.664127;49.2;0.714014;71.2823;68.7
327.3781406;49.3;0.687166;84.032;70.9
328.0653061;49.4;0.706032;87.3152;69
328.7713379;49.5;0.853333;84.982;73.5
329.6246712;49.6;0.809796;70.3125;70.6
330.4344671;49.7;0.789478;74.0927;69.6
331.2239456;49.8;0.815601;75.9995;68.2
332.0395465;50.1;0.748844;73.5654;71.9
332.78839;50.2;0.679184;80.1235;70.2
333.4675737;50.3;0.766258;88.3413;72
334.2338322;50.4;0.725624;78.3026;73.4
334.9594558;50.5;0.818503;82.6875;73.8
335.7779592;50.6;0.702404;73.3045;73.1
336.4803628;50.7;0.731882;85.421;72.8
337.2122449;50.8;0.745488;81.9804;76.4
337.9577324;51.1;0.768798;80.4842;74
338.7265306;51.2;0.598277;78.0439;73.6
339.3248073;51.3;0.824263;100.288;75
340.1490703;51.4;0.724399;72.7923;73.5
340.8734694;51.5;0.718367;82.8273;73.6
341.5918367;51.6;0.798821;83.5227;72.3
342.3906576;51.7;0.91034;75.1107;79
343.3009977;51.8;0.791224;65.9094;71.4
344.0922222;52.1;0.825692;75.8318;71.5
344.9179138;52.2;1.22195;72.6664;70.6
346.1398639;52.3;0.939342;49.1018;66.1
347.0792063;52.4;0.785193;63.8745;64.6
347.8643991;52.5;0.743764;76.4144;69.6
348.6081633;52.6;0.828934;80.6707;69
349.4370975;52.7;0.718005;72.3821;72.5
350.155102;52.8;0.741156;83.5649;70
350.8962585;53.1;0.82619;80.9546;71.7
351.722449;53.2;0.787755;72.6225;68.3
352.5102041;53.3;0.685624;76.1658;68
353.1958277;53.4;0.687891;87.5116;67.2
353.8837188;53.5;0.989751;87.2231;68.2
354.8734694;53.6;0.687891;60.6213;69
355.5613605;53.7;0.71619;87.2231;69.3
356.277551;53.8;0.813447;83.7766;71.3
357.0909977;54.1;0.846939;73.7602;68.7
357.9379365;54.2;0.992676;70.8434;67.3
358.9306122;54.3;0.91737;60.4427;67.7
359.8479819;54.4;0.886712;65.4044;68.9
360.7346939;54.5;0.804082;67.6657;67.2
361.5387755;54.6;0.816327;74.6193;63.4
362.355102;54.7;0.769048;73.5;68.4
363.1241497;54.8;0.867687;78.0186;68.1
363.9918367;55.1;0.768503;69.1494;67.9
364.7603401;55.2;0.81517;78.0738;71.4
365.5755102;55.3;0.828571;73.6043;69.6
366.4040816;55.4;0.851429;72.4138;69.9
367.2555102;55.5;0.956122;70.4698;67.4
368.2116327;55.6;0.875737;62.7535;68.3
369.0873696;55.7;1.09222;68.5137;66
370.1795918;55.8;1.17551;54.9339;62.1
371.355102;56.1;1.06102;51.0417;63.2
372.4161224;56.2;1.03265;56.5493;63.6
373.4487755;56.3;1.06959;58.1028;62.2
374.5183673;56.4;1.19592;56.0962;60.4
375.7142857;56.5;0.865306;50.1706;63.6
376.5795918;56.6;0.840454;69.3396;62
377.4200454;56.7;1.07683;71.39;65
378.4968707;56.8;1.06522;55.7193;65.6
379.5620862;57.1;0.772608;56.3266;66.5
380.3346939;57.2;1.16916;77.6591;68.3
381.5038549;57.3;0.971156;51.3189;67.5
382.4750113;57.4;0.863764;61.782;59.9
383.3387755;57.5;0.84898;69.4634;63.8
384.1877551;57.6;0.95873;70.6731;62
385.1464853;57.7;1.02086;62.5828;68.3
386.1673469;57.8;1.02041;58.7739;67.8
387.1877551;58.1;1.03265;58.8;69.9
388.2204082;58.2;0.984807;58.1028;63.1
389.2052154;58.3;0.955533;60.9256;63.6
390.1607483;58.4;0.908639;62.7922;65.5
391.0693878;58.5;0.967347;66.0328;66.8
392.0367347;58.6;0.908753;62.0253;67.5
392.9454875;58.7;0.956553;66.0246;67.1
393.9020408;58.8;0.779592;62.7252;65.4
394.6816327;59.1;0.816327;76.9633;71.1
395.4979592;59.2;1.00408;73.5;65
396.5020408;59.3;0.902041;59.7561;68.9
397.4040816;59.4;0.702041;66.5158;67.7
398.1061224;59.5;0.853061;85.4651;67.7
398.9591837;59.6;0.853061;70.3349;58.1
399.8122449;59.7;0.97551;70.3349;57
400.7877551;59.8;1.12653;61.5063;67.5
401.9142857;60.1;0.906122;53.2609;65.5
402.8204082;60.2;0.959184;66.2162;62.8
403.7795918;60.3;0.877551;62.5532;70.3
404.6571429;60.4;0.97551;68.3721;69.4
405.6326531;60.5;0.955102;61.5063;69.4
406.5877551;60.6;0.913968;62.8205;75.2
407.5017234;60.7;1.10562;65.6478;72.8
408.6073469;60.8;1.11918;54.268;67.2
409.7265306;61.1;0.888753;53.6105;75.2
410.6152834;61.2;0.984717;67.5103;72.8
411.6;61.3;0.963265;60.9312;68.8
412.5632653;61.4;1.08163;62.2881;66
413.644898;61.5;1.26939;55.4717;65.6
414.9142857;61.6;1.24245;47.2669;71.5
416.1567347;61.7;1.06776;48.2917;62
417.2244898;61.8;1.33469;56.1927;69.7
418.5591837;62.1;1.28662;44.9541;63.7
419.845805;62.2;1.15229;46.6338;67.8
420.9980952;62.3;1.1039;52.0702;60.8
422.1019955;62.4;1.22361;54.3527;69.3
423.3256009;62.5;1.12338;49.0354;64.2
424.4489796;62.6;1.20816;53.4103;70.1
425.6571429;62.7;1.4898;49.6622;66.9
427.1469388;62.8;1.80907;40.274;55.5
428.9560091;63.1;0.970522;33.1662;69.6
429.9265306;63.2;0.873469;61.8224;67.3
430.8;63.3;0.942857;68.6916;65.6
431.7428571;63.4;0.946395;63.6364;70.6
432.6892517;63.5;0.853605;63.3985;77.2
433.5428571;63.6;0.783673;70.2901;71.8
434.3265306;63.7;0.908299;76.5625;74.8
435.2348299;63.8;0.882358;66.0575;71.8
436.1171882;64.1;0.837914;67.9996;84.8
436.955102;64.2;0.791837;71.6064;77.2
437.7469388;64.3;0.787755;75.7732;81.7
438.5346939;64.4;0.795918;76.1658;74.8
439.3306122;64.5;0.857143;75.3846;72.1
440.1877551;64.6;0.82449;70;78
441.0122449;64.7;0.838639;72.7723;76
441.8508844;64.8;0.716463;71.5444;72.3
442.5673469;65.1;0.820408;83.7448;84.6
443.3877551;65.2;0.755102;73.1343;75.7
444.1428571;65.3;0.728254;79.4595;77.2
444.8711111;65.4;0.806893;82.3888;82.7
445.6780045;65.5;0.841723;74.3593;83.2
446.5197279;65.6;0.876553;71.2823;77.8
447.3962812;65.7;0.897075;68.4499;77.4
448.293356;65.8;1.01857;66.8841;80.9
449.3119274;66.1;0.975238;58.906;75.5
450.2871655;66.2;0.876553;61.5234;75.4
451.1637188;66.3;0.883084;68.4499;79.1
452.0468027;66.4;1.06785;67.9437;76.7
453.1146485;66.5;0.859433;56.1879;77.1
453.9740816;66.6;0.922245;69.8135;73.9
454.8963265;66.7;0.893968;65.0586;71.2
